Time(ms)	Membrane_Voltage(mV)
-5	-17.379
-4.9	-17.38
-4.8	-17.381
-4.7	-17.3819
-4.6	-17.3829
-4.5	-17.3838
-4.4	-17.3848
-4.3	-17.3857
-4.2	-17.3866
-4.1	-17.3876
-4	-17.3885
-3.9	-17.3894
-3.8	-17.3903
-3.7	-17.3912
-3.6	-17.392
-3.5	-17.3929
-3.4	-17.3938
-3.3	-17.3947
-3.2	-17.3955
-3.1	-17.3964
-3	-17.3972
-2.9	-17.3981
-2.8	-17.3989
-2.7	-17.3997
-2.6	-17.4005
-2.5	-17.4013
-2.4	-17.4021
-2.3	-17.4029
-2.2	-17.4037
-2.1	-17.4045
-2	-17.4053
-1.9	-17.4061
-1.8	-17.4068
-1.7	-17.4076
-1.6	-17.4083
-1.5	-17.4091
-1.4	-17.4098
-1.3	-17.4105
-1.2	-17.4113
-1.1	-17.412
-1	-17.4127
-0.9	-17.4134
-0.8	-17.4141
-0.7	-17.4148
-0.6	-17.4155
-0.5	-17.4161
-0.4	-17.4168
-0.3	-17.4175
-0.2	-17.4181
-0.1	-17.4188
0	-17.4194
0.1	-9.42238
0.2	-1.42774
0.3	6.56805
0.4	14.5626
0.5	22.5499
0.6	22.5346
0.7	22.5244
0.8	22.5185
0.9	22.5162
1	22.517
1.1	22.5203
1.2	22.5257
1.3	22.5329
1.4	22.5415
1.5	22.5512
1.6	22.562
1.7	22.5734
1.8	22.5854
1.9	22.5979
2	22.6108
2.1	22.6238
2.2	22.637
2.3	22.6503
2.4	22.6635
2.5	22.6768
2.6	22.6899
2.7	22.7029
2.8	22.7158
2.9	22.7285
3	22.741
3.1	22.7532
3.2	22.7652
3.3	22.777
3.4	22.7885
3.5	22.7997
3.6	22.8106
3.7	22.8212
3.8	22.8316
3.9	22.8416
4	22.8514
4.1	22.8608
4.2	22.8699
4.3	22.8788
4.4	22.8873
4.5	22.8955
4.6	22.9034
4.7	22.911
4.8	22.9183
4.9	22.9252
5	22.9319
5.1	22.9383
5.2	22.9443
5.3	22.9501
5.4	22.9555
5.5	22.9607
5.6	22.9655
5.7	22.9701
5.8	22.9744
5.9	22.9784
6	22.9821
6.1	22.9855
6.2	22.9886
6.3	22.9915
6.4	22.994
6.5	22.9963
6.6	22.9983
6.7	23.0001
6.8	23.0016
6.9	23.0028
7	23.0037
7.1	23.0044
7.2	23.0048
7.3	23.005
7.4	23.0049
7.5	23.0046
7.6	23.004
7.7	23.0032
7.8	23.0021
7.9	23.0008
8	22.9993
8.1	22.9975
8.2	22.9955
8.3	22.9933
8.4	22.9908
8.5	22.9881
8.6	22.9852
8.7	22.9821
8.8	22.9787
8.9	22.9751
9	22.9714
9.1	22.9674
9.2	22.9632
9.3	22.9588
9.4	22.9542
9.5	22.9494
9.6	22.9444
9.7	22.9392
9.8	22.9338
9.9	22.9283
10	22.9225
10.1	22.9166
10.2	22.9104
10.3	22.9041
10.4	22.8976
10.5	22.891
10.6	22.8841
10.7	22.8771
10.8	22.87
10.9	22.8626
11	22.8551
11.1	22.8475
11.2	22.8396
11.3	22.8316
11.4	22.8235
11.5	22.8152
11.6	22.8067
11.7	22.7981
11.8	22.7894
11.9	22.7805
12	22.7715
12.1	22.7623
12.2	22.753
12.3	22.7435
12.4	22.7339
12.5	22.7242
12.6	22.7143
12.7	22.7043
12.8	22.6942
12.9	22.684
13	22.6736
13.1	22.6631
13.2	22.6525
13.3	22.6417
13.4	22.6308
13.5	22.6199
13.6	22.6088
13.7	22.5976
13.8	22.5862
13.9	22.5748
14	22.5633
14.1	22.5516
14.2	22.5398
14.3	22.528
14.4	22.516
14.5	22.5039
14.6	22.4918
14.7	22.4795
14.8	22.4671
14.9	22.4547
15	22.4421
15.1	22.4295
15.2	22.4167
15.3	22.4039
15.4	22.3909
15.5	22.3779
15.6	22.3648
15.7	22.3516
15.8	22.3384
15.9	22.325
16	22.3116
16.1	22.298
16.2	22.2844
16.3	22.2707
16.4	22.257
16.5	22.2431
16.6	22.2292
16.7	22.2152
16.8	22.2012
16.9	22.187
17	22.1728
17.1	22.1585
17.2	22.1442
17.3	22.1298
17.4	22.1153
17.5	22.1007
17.6	22.0861
17.7	22.0714
17.8	22.0567
17.9	22.0419
18	22.027
18.1	22.0121
18.2	21.9971
18.3	21.982
18.4	21.9669
18.5	21.9517
18.6	21.9365
18.7	21.9212
18.8	21.9059
18.9	21.8905
19	21.875
19.1	21.8595
19.2	21.844
19.3	21.8284
19.4	21.8127
19.5	21.797
19.6	21.7813
19.7	21.7655
19.8	21.7496
19.9	21.7337
20	21.7178
20.1	21.7018
20.2	21.6857
20.3	21.6697
20.4	21.6535
20.5	21.6374
20.6	21.6211
20.7	21.6049
20.8	21.5886
20.9	21.5723
21	21.5559
21.1	21.5395
21.2	21.523
21.3	21.5065
21.4	21.49
21.5	21.4734
21.6	21.4568
21.7	21.4402
21.8	21.4235
21.9	21.4068
22	21.3901
22.1	21.3733
22.2	21.3565
22.3	21.3396
22.4	21.3228
22.5	21.3058
22.6	21.2889
22.7	21.2719
22.8	21.2549
22.9	21.2379
23	21.2208
23.1	21.2037
23.2	21.1866
23.3	21.1695
23.4	21.1523
23.5	21.1351
23.6	21.1179
23.7	21.1006
23.8	21.0833
23.9	21.066
24	21.0487
24.1	21.0313
24.2	21.014
24.3	20.9966
24.4	20.9791
24.5	20.9617
24.6	20.9442
24.7	20.9267
24.8	20.9092
24.9	20.8916
25	20.8741
25.1	20.8565
25.2	20.8389
25.3	20.8213
25.4	20.8036
25.5	20.786
25.6	20.7683
25.7	20.7506
25.8	20.7329
25.9	20.7151
26	20.6974
26.1	20.6796
26.2	20.6618
26.3	20.644
26.4	20.6262
26.5	20.6083
26.6	20.5905
26.7	20.5726
26.8	20.5547
26.9	20.5368
27	20.5189
27.1	20.501
27.2	20.483
27.3	20.4651
27.4	20.4471
27.5	20.4291
27.6	20.4111
27.7	20.3931
27.8	20.3751
27.9	20.357
28	20.339
28.1	20.3209
28.2	20.3028
28.3	20.2847
28.4	20.2666
28.5	20.2485
28.6	20.2304
28.7	20.2123
28.8	20.1942
28.9	20.176
29	20.1578
29.1	20.1397
29.2	20.1215
29.3	20.1033
29.4	20.0851
29.5	20.0669
29.6	20.0487
29.7	20.0305
29.8	20.0122
29.9	19.994
30	19.9758
30.1	19.9575
30.2	19.9393
30.3	19.921
30.4	19.9027
30.5	19.8844
30.6	19.8662
30.7	19.8479
30.8	19.8296
30.9	19.8113
31	19.7929
31.1	19.7746
31.2	19.7563
31.3	19.738
31.4	19.7197
31.5	19.7013
31.6	19.683
31.7	19.6646
31.8	19.6463
31.9	19.6279
32	19.6096
32.1	19.5912
32.2	19.5728
32.3	19.5545
32.4	19.5361
32.5	19.5177
32.6	19.4994
32.7	19.481
32.8	19.4626
32.9	19.4442
33	19.4258
33.1	19.4074
33.2	19.389
33.3	19.3706
33.4	19.3522
33.5	19.3339
33.6	19.3155
33.7	19.2971
33.8	19.2786
33.9	19.2602
34	19.2418
34.1	19.2234
34.2	19.205
34.3	19.1866
34.4	19.1682
34.5	19.1498
34.6	19.1314
34.7	19.113
34.8	19.0946
34.9	19.0762
35	19.0578
35.1	19.0394
35.2	19.021
35.3	19.0025
35.4	18.9841
35.5	18.9657
35.6	18.9473
35.7	18.9289
35.8	18.9105
35.9	18.8921
36	18.8737
36.1	18.8553
36.2	18.8369
36.3	18.8185
36.4	18.8002
36.5	18.7818
36.6	18.7634
36.7	18.745
36.8	18.7266
36.9	18.7082
37	18.6898
37.1	18.6715
37.2	18.6531
37.3	18.6347
37.4	18.6163
37.5	18.598
37.6	18.5796
37.7	18.5613
37.8	18.5429
37.9	18.5245
38	18.5062
38.1	18.4878
38.2	18.4695
38.3	18.4512
38.4	18.4328
38.5	18.4145
38.6	18.3962
38.7	18.3778
38.8	18.3595
38.9	18.3412
39	18.3229
39.1	18.3046
39.2	18.2863
39.3	18.268
39.4	18.2497
39.5	18.2314
39.6	18.2131
39.7	18.1948
39.8	18.1765
39.9	18.1582
40	18.14
40.1	18.1217
40.2	18.1034
40.3	18.0852
40.4	18.0669
40.5	18.0487
40.6	18.0305
40.7	18.0122
40.8	17.994
40.9	17.9758
41	17.9576
41.1	17.9393
41.2	17.9211
41.3	17.9029
41.4	17.8847
41.5	17.8666
41.6	17.8484
41.7	17.8302
41.8	17.812
41.9	17.7939
42	17.7757
42.1	17.7575
42.2	17.7394
42.3	17.7213
42.4	17.7031
42.5	17.685
42.6	17.6669
42.7	17.6488
42.8	17.6306
42.9	17.6125
43	17.5944
43.1	17.5764
43.2	17.5583
43.3	17.5402
43.4	17.5221
43.5	17.5041
43.6	17.486
43.7	17.468
43.8	17.4499
43.9	17.4319
44	17.4139
44.1	17.3958
44.2	17.3778
44.3	17.3598
44.4	17.3418
44.5	17.3238
44.6	17.3058
44.7	17.2879
44.8	17.2699
44.9	17.2519
45	17.234
45.1	17.216
45.2	17.1981
45.3	17.1802
45.4	17.1622
45.5	17.1443
45.6	17.1264
45.7	17.1085
45.8	17.0906
45.9	17.0727
46	17.0548
46.1	17.037
46.2	17.0191
46.3	17.0013
46.4	16.9834
46.5	16.9656
46.6	16.9477
46.7	16.9299
46.8	16.9121
46.9	16.8943
47	16.8765
47.1	16.8587
47.2	16.8409
47.3	16.8231
47.4	16.8054
47.5	16.7876
47.6	16.7699
47.7	16.7521
47.8	16.7344
47.9	16.7167
48	16.699
48.1	16.6812
48.2	16.6635
48.3	16.6459
48.4	16.6282
48.5	16.6105
48.6	16.5928
48.7	16.5752
48.8	16.5575
48.9	16.5399
49	16.5223
49.1	16.5046
49.2	16.487
49.3	16.4694
49.4	16.4518
49.5	16.4342
49.6	16.4167
49.7	16.3991
49.8	16.3815
49.9	16.364
50	16.3464
50.1	16.3289
50.2	16.3114
50.3	16.2938
50.4	16.2763
50.5	16.2588
50.6	16.2413
50.7	16.2239
50.8	16.2064
50.9	16.1889
51	16.1715
51.1	16.154
51.2	16.1366
51.3	16.1192
51.4	16.1017
51.5	16.0843
51.6	16.0669
51.7	16.0495
51.8	16.0321
51.9	16.0148
52	15.9974
52.1	15.98
52.2	15.9627
52.3	15.9454
52.4	15.928
52.5	15.9107
52.6	15.8934
52.7	15.8761
52.8	15.8588
52.9	15.8415
53	15.8243
53.1	15.807
53.2	15.7897
53.3	15.7725
53.4	15.7552
53.5	15.738
53.6	15.7208
53.7	15.7036
53.8	15.6864
53.9	15.6692
54	15.652
54.1	15.6348
54.2	15.6177
54.3	15.6005
54.4	15.5834
54.5	15.5662
54.6	15.5491
54.7	15.532
54.8	15.5149
54.9	15.4978
55	15.4807
55.1	15.4636
55.2	15.4466
55.3	15.4295
55.4	15.4124
55.5	15.3954
55.6	15.3784
55.7	15.3613
55.8	15.3443
55.9	15.3273
56	15.3103
56.1	15.2933
56.2	15.2764
56.3	15.2594
56.4	15.2424
56.5	15.2255
56.6	15.2085
56.7	15.1916
56.8	15.1747
56.9	15.1578
57	15.1409
57.1	15.124
57.2	15.1071
57.3	15.0902
57.4	15.0733
57.5	15.0565
57.6	15.0396
57.7	15.0228
57.8	15.006
57.9	14.9891
58	14.9723
58.1	14.9555
58.2	14.9387
58.3	14.922
58.4	14.9052
58.5	14.8884
58.6	14.8717
58.7	14.8549
58.8	14.8382
58.9	14.8214
59	14.8047
59.1	14.788
59.2	14.7713
59.3	14.7546
59.4	14.7379
59.5	14.7213
59.6	14.7046
59.7	14.6879
59.8	14.6713
59.9	14.6547
60	14.638
60.1	14.6214
60.2	14.6048
60.3	14.5882
60.4	14.5716
60.5	14.555
60.6	14.5385
60.7	14.5219
60.8	14.5053
60.9	14.4888
61	14.4723
61.1	14.4557
61.2	14.4392
61.3	14.4227
61.4	14.4062
61.5	14.3897
61.6	14.3732
61.7	14.3568
61.8	14.3403
61.9	14.3238
62	14.3074
62.1	14.291
62.2	14.2745
62.3	14.2581
62.4	14.2417
62.5	14.2253
62.6	14.2089
62.7	14.1925
62.8	14.1762
62.9	14.1598
63	14.1434
63.1	14.1271
63.2	14.1107
63.3	14.0944
63.4	14.0781
63.5	14.0618
63.6	14.0455
63.7	14.0292
63.8	14.0129
63.9	13.9966
64	13.9803
64.1	13.9641
64.2	13.9478
64.3	13.9316
64.4	13.9154
64.5	13.8991
64.6	13.8829
64.7	13.8667
64.8	13.8505
64.9	13.8343
65	13.8181
65.1	13.802
65.2	13.7858
65.3	13.7696
65.4	13.7535
65.5	13.7374
65.6	13.7212
65.7	13.7051
65.8	13.689
65.9	13.6729
66	13.6568
66.1	13.6407
66.2	13.6246
66.3	13.6086
66.4	13.5925
66.5	13.5764
66.6	13.5604
66.7	13.5444
66.8	13.5283
66.9	13.5123
67	13.4963
67.1	13.4803
67.2	13.4643
67.3	13.4483
67.4	13.4323
67.5	13.4164
67.6	13.4004
67.7	13.3844
67.8	13.3685
67.9	13.3526
68	13.3366
68.1	13.3207
68.2	13.3048
68.3	13.2889
68.4	13.273
68.5	13.2571
68.6	13.2412
68.7	13.2254
68.8	13.2095
68.9	13.1936
69	13.1778
69.1	13.1619
69.2	13.1461
69.3	13.1303
69.4	13.1145
69.5	13.0987
69.6	13.0829
69.7	13.0671
69.8	13.0513
69.9	13.0355
70	13.0197
70.1	13.004
70.2	12.9882
70.3	12.9725
70.4	12.9568
70.5	12.941
70.6	12.9253
70.7	12.9096
70.8	12.8939
70.9	12.8782
71	12.8625
71.1	12.8468
71.2	12.8311
71.3	12.8155
71.4	12.7998
71.5	12.7842
71.6	12.7685
71.7	12.7529
71.8	12.7373
71.9	12.7216
72	12.706
72.1	12.6904
72.2	12.6748
72.3	12.6592
72.4	12.6436
72.5	12.6281
72.6	12.6125
72.7	12.5969
72.8	12.5814
72.9	12.5658
73	12.5503
73.1	12.5348
73.2	12.5192
73.3	12.5037
73.4	12.4882
73.5	12.4727
73.6	12.4572
73.7	12.4417
73.8	12.4262
73.9	12.4108
74	12.3953
74.1	12.3799
74.2	12.3644
74.3	12.349
74.4	12.3335
74.5	12.3181
74.6	12.3027
74.7	12.2873
74.8	12.2718
74.9	12.2564
75	12.241
75.1	12.2257
75.2	12.2103
75.3	12.1949
75.4	12.1795
75.5	12.1642
75.6	12.1488
75.7	12.1335
75.8	12.1181
75.9	12.1028
76	12.0875
76.1	12.0722
76.2	12.0569
76.3	12.0416
76.4	12.0263
76.5	12.011
76.6	11.9957
76.7	11.9804
76.8	11.9651
76.9	11.9499
77	11.9346
77.1	11.9194
77.2	11.9041
77.3	11.8889
77.4	11.8737
77.5	11.8584
77.6	11.8432
77.7	11.828
77.8	11.8128
77.9	11.7976
78	11.7824
78.1	11.7672
78.2	11.7521
78.3	11.7369
78.4	11.7217
78.5	11.7066
78.6	11.6914
78.7	11.6763
78.8	11.6611
78.9	11.646
79	11.6309
79.1	11.6157
79.2	11.6006
79.3	11.5855
79.4	11.5704
79.5	11.5553
79.6	11.5402
79.7	11.5252
79.8	11.5101
79.9	11.495
80	11.4799
80.1	11.4649
80.2	11.4498
80.3	11.4348
80.4	11.4198
80.5	11.4047
80.6	11.3897
80.7	11.3747
80.8	11.3597
80.9	11.3447
81	11.3297
81.1	11.3147
81.2	11.2997
81.3	11.2847
81.4	11.2697
81.5	11.2547
81.6	11.2398
81.7	11.2248
81.8	11.2098
81.9	11.1949
82	11.18
82.1	11.165
82.2	11.1501
82.3	11.1352
82.4	11.1202
82.5	11.1053
82.6	11.0904
82.7	11.0755
82.8	11.0606
82.9	11.0457
83	11.0308
83.1	11.016
83.2	11.0011
83.3	10.9862
83.4	10.9714
83.5	10.9565
83.6	10.9417
83.7	10.9268
83.8	10.912
83.9	10.8971
84	10.8823
84.1	10.8675
84.2	10.8527
84.3	10.8378
84.4	10.823
84.5	10.8082
84.6	10.7934
84.7	10.7787
84.8	10.7639
84.9	10.7491
85	10.7343
85.1	10.7195
85.2	10.7048
85.3	10.69
85.4	10.6753
85.5	10.6605
85.6	10.6458
85.7	10.631
85.8	10.6163
85.9	10.6016
86	10.5869
86.1	10.5721
86.2	10.5574
86.3	10.5427
86.4	10.528
86.5	10.5133
86.6	10.4986
86.7	10.484
86.8	10.4693
86.9	10.4546
87	10.4399
87.1	10.4253
87.2	10.4106
87.3	10.3959
87.4	10.3813
87.5	10.3667
87.6	10.352
87.7	10.3374
87.8	10.3227
87.9	10.3081
88	10.2935
88.1	10.2789
88.2	10.2643
88.3	10.2497
88.4	10.2351
88.5	10.2205
88.6	10.2059
88.7	10.1913
88.8	10.1767
88.9	10.1621
89	10.1476
89.1	10.133
89.2	10.1184
89.3	10.1039
89.4	10.0893
89.5	10.0748
89.6	10.0602
89.7	10.0457
89.8	10.0312
89.9	10.0166
90	10.0021
90.1	9.98758
90.2	9.97307
90.3	9.95856
90.4	9.94405
90.5	9.92955
90.6	9.91505
90.7	9.90056
90.8	9.88607
90.9	9.87158
91	9.8571
91.1	9.84263
91.2	9.82816
91.3	9.81369
91.4	9.79923
91.5	9.78477
91.6	9.77032
91.7	9.75587
91.8	9.74143
91.9	9.72699
92	9.71255
92.1	9.69812
92.2	9.6837
92.3	9.66927
92.4	9.65486
92.5	9.64044
92.6	9.62603
92.7	9.61163
92.8	9.59723
92.9	9.58283
93	9.56844
93.1	9.55405
93.2	9.53966
93.3	9.52528
93.4	9.51091
93.5	9.49654
93.6	9.48217
93.7	9.46781
93.8	9.45345
93.9	9.43909
94	9.42474
94.1	9.41039
94.2	9.39605
94.3	9.38171
94.4	9.36738
94.5	9.35305
94.6	9.33872
94.7	9.3244
94.8	9.31008
94.9	9.29576
95	9.28145
95.1	9.26714
95.2	9.25284
95.3	9.23854
95.4	9.22425
95.5	9.20996
95.6	9.19567
95.7	9.18138
95.8	9.16711
95.9	9.15283
96	9.13856
96.1	9.12429
96.2	9.11003
96.3	9.09576
96.4	9.08151
96.5	9.06726
96.6	9.05301
96.7	9.03876
96.8	9.02452
96.9	9.01028
97	8.99605
97.1	8.98182
97.2	8.96759
97.3	8.95337
97.4	8.93915
97.5	8.92493
97.6	8.91072
97.7	8.89651
97.8	8.88231
97.9	8.8681
98	8.85391
98.1	8.83971
98.2	8.82552
98.3	8.81134
98.4	8.79715
98.5	8.78297
98.6	8.7688
98.7	8.75462
98.8	8.74045
98.9	8.72629
99	8.71213
99.1	8.69797
99.2	8.68381
99.3	8.66966
99.4	8.65551
99.5	8.64137
99.6	8.62723
99.7	8.61309
99.8	8.59895
99.9	8.58482
100	8.57069
100.1	8.55657
100.2	8.54245
100.3	8.52833
100.4	8.51422
100.5	8.5001
100.6	8.486
100.7	8.47189
100.8	8.45779
100.9	8.44369
101	8.4296
101.1	8.41551
101.2	8.40142
101.3	8.38733
101.4	8.37325
101.5	8.35917
101.6	8.3451
101.7	8.33103
101.8	8.31696
101.9	8.30289
102	8.28883
102.1	8.27477
102.2	8.26071
102.3	8.24666
102.4	8.23261
102.5	8.21856
102.6	8.20452
102.7	8.19048
102.8	8.17644
102.9	8.16241
103	8.14837
103.1	8.13435
103.2	8.12032
103.3	8.1063
103.4	8.09228
103.5	8.07826
103.6	8.06425
103.7	8.05024
103.8	8.03623
103.9	8.02223
104	8.00823
104.1	7.99423
104.2	7.98023
104.3	7.96624
104.4	7.95225
104.5	7.93826
104.6	7.92428
104.7	7.9103
104.8	7.89632
104.9	7.88235
105	7.86837
105.1	7.8544
105.2	7.84044
105.3	7.82647
105.4	7.81251
105.5	7.79855
105.6	7.7846
105.7	7.77065
105.8	7.7567
105.9	7.74275
106	7.72881
106.1	7.71486
106.2	7.70093
106.3	7.68699
106.4	7.67306
106.5	7.65913
106.6	7.6452
106.7	7.63127
106.8	7.61735
106.9	7.60343
107	7.58951
107.1	7.5756
107.2	7.56169
107.3	7.54778
107.4	7.53387
107.5	7.51997
107.6	7.50607
107.7	7.49217
107.8	7.47827
107.9	7.46438
108	7.45049
108.1	7.4366
108.2	7.42272
108.3	7.40883
108.4	7.39495
108.5	7.38108
108.6	7.3672
108.7	7.35333
108.8	7.33946
108.9	7.32559
109	7.31172
109.1	7.29786
109.2	7.284
109.3	7.27014
109.4	7.25629
109.5	7.24244
109.6	7.22859
109.7	7.21474
109.8	7.20089
109.9	7.18705
110	7.17321
110.1	7.15937
110.2	7.14553
110.3	7.1317
110.4	7.11787
110.5	7.10404
110.6	7.09021
110.7	7.07639
110.8	7.06257
110.9	7.04875
111	7.03493
111.1	7.02112
111.2	7.00731
111.3	6.9935
111.4	6.97969
111.5	6.96588
111.6	6.95208
111.7	6.93828
111.8	6.92448
111.9	6.91068
112	6.89689
112.1	6.8831
112.2	6.86931
112.3	6.85552
112.4	6.84173
112.5	6.82795
112.6	6.81417
112.7	6.80039
112.8	6.78662
112.9	6.77284
113	6.75907
113.1	6.7453
113.2	6.73153
113.3	6.71777
113.4	6.704
113.5	6.69024
113.6	6.67648
113.7	6.66272
113.8	6.64897
113.9	6.63522
114	6.62147
114.1	6.60772
114.2	6.59397
114.3	6.58022
114.4	6.56648
114.5	6.55274
114.6	6.539
114.7	6.52527
114.8	6.51153
114.9	6.4978
115	6.48407
115.1	6.47034
115.2	6.45661
115.3	6.44289
115.4	6.42917
115.5	6.41545
115.6	6.40173
115.7	6.38801
115.8	6.3743
115.9	6.36058
116	6.34687
116.1	6.33316
116.2	6.31946
116.3	6.30575
116.4	6.29205
116.5	6.27835
116.6	6.26465
116.7	6.25095
116.8	6.23726
116.9	6.22356
117	6.20987
117.1	6.19618
117.2	6.18249
117.3	6.1688
117.4	6.15512
117.5	6.14144
117.6	6.12776
117.7	6.11408
117.8	6.1004
117.9	6.08672
118	6.07305
118.1	6.05938
118.2	6.04571
118.3	6.03204
118.4	6.01837
118.5	6.00471
118.6	5.99105
118.7	5.97738
118.8	5.96372
118.9	5.95007
119	5.93641
119.1	5.92275
119.2	5.9091
119.3	5.89545
119.4	5.8818
119.5	5.86815
119.6	5.85451
119.7	5.84086
119.8	5.82722
119.9	5.81358
120	5.79994
120.1	5.7863
120.2	5.77266
120.3	5.75903
120.4	5.74539
120.5	5.73176
120.6	5.71813
120.7	5.7045
120.8	5.69088
120.9	5.67725
121	5.66363
121.1	5.65001
121.2	5.63639
121.3	5.62277
121.4	5.60915
121.5	5.59553
121.6	5.58192
121.7	5.5683
121.8	5.55469
121.9	5.54108
122	5.52747
122.1	5.51387
122.2	5.50026
122.3	5.48666
122.4	5.47306
122.5	5.45945
122.6	5.44585
122.7	5.43226
122.8	5.41866
122.9	5.40506
123	5.39147
123.1	5.37788
123.2	5.36429
123.3	5.3507
123.4	5.33711
123.5	5.32352
123.6	5.30993
123.7	5.29635
123.8	5.28277
123.9	5.26918
124	5.2556
124.1	5.24203
124.2	5.22845
124.3	5.21487
124.4	5.2013
124.5	5.18772
124.6	5.17415
124.7	5.16058
124.8	5.14701
124.9	5.13344
125	5.11987
125.1	5.10631
125.2	5.09274
125.3	5.07918
125.4	5.06562
125.5	5.05206
125.6	5.0385
125.7	5.02494
125.8	5.01138
125.9	4.99783
126	4.98427
126.1	4.97072
126.2	4.95717
126.3	4.94361
126.4	4.93006
126.5	4.91652
126.6	4.90297
126.7	4.88942
126.8	4.87588
126.9	4.86233
127	4.84879
127.1	4.83525
127.2	4.82171
127.3	4.80817
127.4	4.79463
127.5	4.78109
127.6	4.76755
127.7	4.75402
127.8	4.74048
127.9	4.72695
128	4.71342
128.1	4.69989
128.2	4.68636
128.3	4.67283
128.4	4.6593
128.5	4.64577
128.6	4.63225
128.7	4.61872
128.8	4.6052
128.9	4.59168
129	4.57816
129.1	4.56463
129.2	4.55111
129.3	4.5376
129.4	4.52408
129.5	4.51056
129.6	4.49705
129.7	4.48353
129.8	4.47002
129.9	4.4565
130	4.44299
130.1	4.42948
130.2	4.41597
130.3	4.40246
130.4	4.38895
130.5	4.37544
130.6	4.36194
130.7	4.34843
130.8	4.33493
130.9	4.32142
131	4.30792
131.1	4.29442
131.2	4.28092
131.3	4.26742
131.4	4.25392
131.5	4.24042
131.6	4.22692
131.7	4.21342
131.8	4.19993
131.9	4.18643
132	4.17294
132.1	4.15944
132.2	4.14595
132.3	4.13246
132.4	4.11896
132.5	4.10547
132.6	4.09198
132.7	4.07849
132.8	4.065
132.9	4.05152
133	4.03803
133.1	4.02454
133.2	4.01106
133.3	3.99757
133.4	3.98409
133.5	3.9706
133.6	3.95712
133.7	3.94364
133.8	3.93016
133.9	3.91668
134	3.9032
134.1	3.88972
134.2	3.87624
134.3	3.86276
134.4	3.84928
134.5	3.8358
134.6	3.82233
134.7	3.80885
134.8	3.79538
134.9	3.7819
135	3.76843
135.1	3.75495
135.2	3.74148
135.3	3.72801
135.4	3.71454
135.5	3.70107
135.6	3.6876
135.7	3.67413
135.8	3.66066
135.9	3.64719
136	3.63372
136.1	3.62025
136.2	3.60678
136.3	3.59332
136.4	3.57985
136.5	3.56638
136.6	3.55292
136.7	3.53945
136.8	3.52599
136.9	3.51252
137	3.49906
137.1	3.4856
137.2	3.47213
137.3	3.45867
137.4	3.44521
137.5	3.43175
137.6	3.41829
137.7	3.40483
137.8	3.39137
137.9	3.37791
138	3.36445
138.1	3.35099
138.2	3.33753
138.3	3.32407
138.4	3.31061
138.5	3.29716
138.6	3.2837
138.7	3.27024
138.8	3.25679
138.9	3.24333
139	3.22987
139.1	3.21642
139.2	3.20296
139.3	3.18951
139.4	3.17605
139.5	3.1626
139.6	3.14914
139.7	3.13569
139.8	3.12224
139.9	3.10878
140	3.09533
140.1	3.08188
140.2	3.06843
140.3	3.05497
140.4	3.04152
140.5	3.02807
140.6	3.01462
140.7	3.00117
140.8	2.98771
140.9	2.97426
141	2.96081
141.1	2.94736
141.2	2.93391
141.3	2.92046
141.4	2.90701
141.5	2.89356
141.6	2.88011
141.7	2.86666
141.8	2.85321
141.9	2.83976
142	2.82631
142.1	2.81286
142.2	2.79941
142.3	2.78596
142.4	2.77252
142.5	2.75907
142.6	2.74562
142.7	2.73217
142.8	2.71872
142.9	2.70527
143	2.69182
143.1	2.67837
143.2	2.66493
143.3	2.65148
143.4	2.63803
143.5	2.62458
143.6	2.61113
143.7	2.59768
143.8	2.58423
143.9	2.57079
144	2.55734
144.1	2.54389
144.2	2.53044
144.3	2.51699
144.4	2.50354
144.5	2.49009
144.6	2.47665
144.7	2.4632
144.8	2.44975
144.9	2.4363
145	2.42285
145.1	2.4094
145.2	2.39595
145.3	2.3825
145.4	2.36905
145.5	2.3556
145.6	2.34215
145.7	2.3287
145.8	2.31525
145.9	2.3018
146	2.28835
146.1	2.2749
146.2	2.26145
146.3	2.248
146.4	2.23455
146.5	2.2211
146.6	2.20764
146.7	2.19419
146.8	2.18074
146.9	2.16729
147	2.15384
147.1	2.14038
147.2	2.12693
147.3	2.11348
147.4	2.10002
147.5	2.08657
147.6	2.07312
147.7	2.05966
147.8	2.04621
147.9	2.03275
148	2.0193
148.1	2.00584
148.2	1.99239
148.3	1.97893
148.4	1.96548
148.5	1.95202
148.6	1.93856
148.7	1.9251
148.8	1.91165
